#Creator: pendulumdriveEventBuffer
#Creation time: Thu Apr 11 16:06:28 2019
#Time	Pos
#[s]	[au]
0.050	534
0.100	536
0.150	563
0.201	566
0.251	559
0.301	553
0.351	528
0.401	506
0.451	476
0.502	432
0.553	411
0.603	376
0.653	341
0.703	317
0.754	299
0.804	282
0.854	274
0.904	266
0.954	279
1.004	293
1.055	312
1.105	345
1.155	375
1.205	410
1.255	442
1.305	462
1.356	503
1.407	526
1.457	541
1.507	555
1.557	553
1.608	558
1.658	549
1.708	516
1.758	507
1.808	476
1.858	442
1.909	413
1.959	381
2.009	353
2.059	326
2.109	298
2.159	291
2.210	284
2.260	276
2.311	286
2.361	303
2.411	319
2.462	344
2.512	363
2.562	406
2.612	436
2.662	465
2.712	493
2.763	498
2.813	534
2.863	544
2.913	535
2.963	549
3.013	540
3.064	526
3.114	506
3.164	466
3.215	449
3.265	419
3.316	377
3.366	361
3.416	336
3.466	309
3.516	303
3.566	309
3.617	292
3.667	295
3.717	300
3.767	324
3.817	345
3.868	368
3.918	400
3.968	423
4.018	457
4.068	482
4.119	494
4.170	521
4.220	530
4.270	538
4.320	538
4.370	513
4.420	518
4.471	502
4.521	470
4.571	454
4.621	425
4.671	397
4.722	372
4.772	339
4.822	330
4.872	317
4.922	301
4.972	305
5.024	308
5.074	314
5.124	329
5.174	338
5.224	370
5.274	395
5.325	413
5.375	445
5.425	466
5.475	490
5.525	505
5.576	502
5.626	524
5.676	524
5.726	511
5.776	510
5.826	492
5.877	477
5.928	454
5.978	417
6.028	407
6.078	384
6.128	356
6.179	345
6.229	333
6.279	324
6.329	319
6.379	314
6.430	326
6.480	338
6.530	348
6.580	372
6.630	392
6.680	416
6.731	439
6.781	444
6.832	478
6.882	493
6.932	497
6.983	510
7.033	507
7.083	509
7.133	501
7.183	472
7.233	472
7.284	452
7.334	429
7.384	411
7.434	390
7.484	373
7.534	355
7.585	336
7.635	336
7.685	331
7.736	326
7.786	336
7.837	346
7.887	358
7.937	374
7.987	382
8.037	412
8.087	431
8.138	448
8.188	468
8.238	478
8.288	493
8.338	500
8.388	490
8.439	501
8.489	493
8.539	480
8.589	470
8.640	449
8.691	435
8.741	417
8.791	388
8.841	383
8.891	366
8.941	350
8.992	344
9.042	345
9.092	338
9.142	342
9.192	340
9.242	362
9.293	374
9.343	387
9.393	409
9.443	420
9.493	444
9.545	458
9.595	460
9.645	483
9.695	490
9.745	493
9.795	494
9.846	475
9.896	482
9.946	470
9.996	445
10.046	440
10.096	423
10.147	404
10.197	390
10.247	377
10.297	364
10.347	353
10.398	340
10.449	346
10.499	348
10.549	348
10.599	362
10.649	375
10.700	388
10.750	402
10.800	408
10.850	435
10.900	449
10.951	461
11.001	473
11.051	467
11.101	485
11.151	487
11.201	474
11.252	479
11.303	471
11.353	458
11.403	446
11.453	423
11.503	415
11.554	400
11.604	379
11.654	374
11.704	364
11.754	356
11.805	353
11.855	344
11.905	356
11.955	362
12.005	364
12.055	382
12.106	395
12.156	409
12.207	423
12.257	424
12.307	452
12.357	462
12.408	464
12.458	478
12.508	478
12.558	481
12.608	477
12.659	453
12.709	463
12.759	450
12.809	432
12.859	425
12.909	411
12.960	398
13.010	387
13.060	368
13.111	368
13.161	364
13.212	356
13.262	360
13.312	363
13.362	371
13.412	379
13.462	377
13.513	401
13.563	413
13.613	418
13.663	438
13.713	447
13.763	459
13.814	466
13.864	458
13.914	473
13.964	472
14.015	464
14.066	464
14.116	453
14.166	446
14.216	435
14.266	410
14.316	410
14.367	400
14.417	384
14.467	379
14.517	373
14.567	369
14.617	366
14.668	358
14.718	371
14.768	375
14.818	378
14.868	394
14.920	402
14.970	414
15.020	425
15.070	427
15.120	448
15.170	455
15.221	458
15.271	467
15.321	465
15.371	467
15.421	464
15.471	448
15.522	452
15.572	442
15.622	429
15.672	422
15.722	409
15.773	400
15.824	391
15.874	373
15.924	376
15.974	372
16.024	366
16.075	371
16.125	373
16.175	379
16.225	385
16.275	384
16.325	405
16.376	415
16.426	424
16.476	435
16.526	438
16.576	455
16.627	461
16.677	454
16.728	466
16.778	464
16.828	461
16.878	458
16.929	441
16.979	443
17.029	431
17.079	414
17.129	412
17.180	401
17.230	387
17.280	383
17.330	379
17.380	372
17.430	370
17.481	362
17.531	373
17.581	379
17.632	384
17.682	395
17.732	399
17.783	415
17.833	426
17.883	428
17.933	447
17.983	454
18.034	461
18.084	466
18.134	453
18.184	467
18.234	465
18.284	450
18.335	453
18.385	442
18.435	432
18.485	421
18.536	397
18.586	400
18.637	388
18.687	374
18.737	374
18.787	369
18.837	368
18.888	367
18.938	361
18.988	376
19.038	385
19.088	388
19.138	405
19.189	416
19.239	428
19.289	441
19.339	436
19.389	459
19.440	466
19.491	464
19.541	473
19.591	469
19.641	468
19.691	461
19.742	439
19.792	443
19.842	431
19.892	413
19.942	407
19.992	395
20.043	384
20.093	375
20.143	357
20.193	364
20.243	362
20.293	356
20.345	368
20.395	374
20.445	383
20.495	394
20.545	393
20.596	420
20.646	433
20.696	438
20.746	455
20.796	465
20.846	473
20.897	477
20.947	464
20.997	475
21.047	470
21.097	456
21.148	454
21.198	440
21.249	430
21.299	415
21.349	389
21.399	385
21.450	378
21.500	362
21.550	360
21.600	358
21.650	357
21.700	360
21.751	356
21.801	374
21.851	384
21.901	391
21.951	411
22.002	422
22.052	439
22.103	453
22.153	451
22.203	474
22.253	479
22.304	480
22.354	483
22.404	477
22.454	473
22.504	464
22.554	440
22.605	439
22.655	423
22.705	406
22.755	395
22.805	380
22.856	369
22.906	360
22.956	347
23.007	352
23.057	353
23.107	352
23.158	363
23.208	375
23.258	388
23.308	402
23.358	406
23.408	433
23.459	447
23.509	459
23.559	473
23.609	467
23.659	488
23.710	489
23.760	477
23.810	483
23.860	473
23.911	459
23.961	449
24.012	426
24.062	416
24.112	400
24.162	376
24.212	371
24.263	358
24.313	348
24.363	347
24.413	351
24.463	350
24.513	355
24.564	356
24.614	379
24.664	393
24.714	408
24.764	428
24.815	431
24.866	459
24.916	473
24.966	474
25.016	490
25.066	493
25.117	495
25.167	490
25.217	465
25.267	471
25.317	456
25.367	432
25.418	423
25.468	404
25.518	386
25.568	371
25.618	351
25.668	349
25.720	342
25.770	332
25.820	342
25.870	348
25.920	356
25.971	370
26.021	376
26.071	404
26.121	422
26.171	432
26.221	459
26.272	471
26.322	487
26.372	496
26.422	484
26.472	501
26.522	498
26.573	484
26.624	480
26.674	462
26.724	446
26.774	428
26.825	396
26.875	389
26.925	371
26.975	352
27.025	345
27.075	339
27.126	333
27.176	333
27.226	333
27.276	350
27.326	362
27.376	372
27.427	399
27.477	417
27.528	438
27.578	457
27.628	462
27.679	490
27.729	499
27.779	501
27.829	509
27.879	501
27.929	498
27.980	486
28.030	458
28.080	453
28.130	432
28.180	406
28.231	391
28.281	371
28.331	355
28.381	342
28.432	325
28.482	329
28.533	328
28.583	326
28.633	342
28.683	355
28.733	373
28.783	394
28.834	403
28.884	436
28.934	456
28.984	472
29.034	492
29.085	498
29.135	512
29.185	514
29.235	499
29.285	506
29.336	493
29.387	475
29.437	457
29.487	435
29.537	415
29.587	393
29.637	363
29.688	355
29.738	340
29.788	325
29.838	324
29.888	333
29.939	327
29.989	336
30.039	342
30.089	366
30.139	387
30.189	405
30.241	431
30.291	444
30.341	475
30.391	491
30.441	490
30.492	516
30.542	517
30.592	516
30.642	512
30.692	483
30.742	485
30.793	465
30.843	434
30.893	420
30.943	397
30.993	374
31.043	356
31.094	347
31.145	327
31.195	322
31.245	312
31.295	323
31.346	330
31.396	340
31.446	361
31.496	367
31.546	403
31.596	425
31.647	441
31.697	470
31.747	487
31.797	504
31.847	514
31.897	503
31.948	520
31.998	516
32.049	495
32.099	490
32.149	470
32.200	450
32.250	427
32.300	393
32.350	382
32.400	362
32.450	337
32.501	329
32.551	323
32.601	316
32.651	321
32.701	320
32.751	338
32.802	355
32.852	369
32.903	396
32.953	420
33.003	443
33.054	465
33.104	468
33.154	503
33.204	511
33.254	510
33.304	521
33.355	514
33.405	508
33.455	494
33.505	460
33.555	457
33.605	433
33.656	404
33.706	388
33.756	367
33.807	348
33.857	334
33.908	316
33.958	319
34.008	320
34.058	320
34.108	336
34.158	351
34.209	370
34.259	391
34.309	402
34.359	437
34.409	461
34.460	474
34.510	496
34.560	504
34.610	516
34.660	519
34.711	500
34.762	510
34.812	497
34.862	474
34.912	459
34.962	437
35.012	416
35.063	394
35.113	354
35.163	353
35.213	338
35.263	320
35.314	320
35.364	322
35.414	325
35.464	333
35.514	340
35.564	366
35.616	386
35.666	404
35.716	432
35.766	451
35.816	475
35.866	492
35.917	491
35.967	515
36.017	518
36.067	513
36.117	512
36.168	495
36.218	485
36.268	465
36.318	432
36.368	420
36.418	397
36.469	372
36.520	358
36.570	343
36.620	330
36.670	323
36.720	312
36.771	324
36.821	331
36.871	340
36.921	361
36.971	380
37.022	403
37.072	427
37.122	438
37.172	470
37.222	487
37.272	501
37.323	512
37.373	500
37.424	518
37.474	512
37.524	491
37.575	488
37.625	468
37.675	446
37.725	427
37.775	403
37.825	382
37.876	362
37.926	338
37.976	333
38.026	325
38.076	314
38.126	323
38.177	335
38.227	341
38.277	357
38.328	369
38.378	397
38.429	420
38.479	442
38.529	465
38.579	469
38.629	499
38.679	509
38.730	507
38.780	518
38.830	512
38.880	507
38.930	493
38.980	459
39.031	454
39.081	432
39.131	401
39.181	387
39.232	370
39.283	348
39.333	336
39.383	321
39.433	322
39.483	321
39.533	320
39.584	338
39.634	355
39.684	370
39.734	392
39.784	402
39.834	437
39.885	459
39.935	471
39.985	495
40.035	504
40.085	514
40.137	517
40.187	498
40.237	508
40.287	496
40.337	471
40.387	460
40.438	437
40.488	416
40.538	394
40.588	365
40.638	355
40.688	340
40.739	324
40.789	324
40.839	324
40.889	327
40.939	335
40.990	342
41.041	368
41.091	387
41.141	402
41.191	432
41.241	450
41.292	470
41.342	488
41.392	482
41.442	511
41.492	514
41.543	509
41.593	508
41.643	494
41.693	483
41.743	465
41.793	430
41.844	424
41.895	402
41.945	376
41.995	362
42.045	348
42.095	335
42.146	328
42.196	320
42.246	326
42.296	335
42.346	340
42.397	363
42.447	380
42.497	401
42.547	423
42.597	431
42.647	464
42.698	482
42.748	491
42.799	506
42.849	507
42.899	514
42.949	510
43.000	482
43.050	488
43.100	470
43.150	448
43.200	432
43.251	407
43.301	388
43.351	369
43.401	344
43.451	340
43.501	332
43.552	322
43.602	329
43.652	335
43.703	345
43.753	359
43.804	366
43.854	395
43.904	416
43.954	434
44.004	458
44.054	470
44.105	492
44.155	501
44.205	496
44.255	512
44.305	508
44.355	499
44.406	491
44.456	462
44.506	457
44.556	436
44.607	405
44.658	396
44.708	375
44.758	356
44.808	346
44.858	343
44.908	331
44.959	330
45.009	326
45.059	342
45.109	355
45.159	368
45.209	389
45.260	407
45.310	431
45.360	451
45.410	457
45.460	485
45.512	495
45.562	505
45.612	509
45.662	491
45.712	503
45.762	493
45.813	469
45.863	462
45.913	442
45.963	421
46.013	403
46.063	375
46.114	366
46.164	351
46.214	334
46.264	333
46.314	331
46.365	332
46.416	341
46.466	347
46.516	368
46.566	384
46.616	393
46.667	424
46.717	442
46.767	463
46.817	478
46.867	473
46.917	499
46.968	505
47.018	498
47.068	502
47.118	493
47.168	483
47.219	467
47.269	434
47.320	429
47.370	409
47.420	384
47.470	373
47.521	357
47.571	345
47.621	338
47.671	326
47.721	334
47.772	339
47.822	342
47.872	362
47.922	378
47.972	397
48.022	418
48.073	425
48.123	456
48.173	472
48.224	480
48.274	497
48.324	501
48.375	507
48.425	504
48.475	483
48.525	487
48.575	472
48.626	450
48.676	436
48.726	415
48.776	396
48.826	379
48.876	353
48.927	349
48.977	340
49.027	330
49.077	334
49.128	339
49.178	346
49.229	358
49.279	364
49.329	391
49.379	409
49.429	422
49.480	448
49.530	463
49.580	481
49.630	493
49.680	488
49.730	505
49.781	503
49.831	497
49.881	491
49.931	473
49.981	462
50.032	443
50.083	414
50.133	404
50.183	386
50.233	364
50.283	355
50.334	346
50.384	337
50.434	334
50.484	328
50.534	342
50.584	352
50.635	361
50.685	384
50.735	402
50.785	422
50.835	442
50.885	448
50.937	477
50.987	489
51.037	497
51.087	505
51.137	500
51.188	502
51.238	494
51.288	471
51.338	468
51.388	450
51.438	428
51.489	411
51.539	393
51.589	375
51.639	359
51.689	338
51.740	339
51.790	334
51.841	329
51.891	339
51.941	355
51.991	362
52.042	377
52.092	387
52.142	415
52.192	435
52.242	451
52.292	470
52.343	473
52.393	497
52.443	502
52.493	496
52.543	505
52.594	499
52.644	487
52.695	473
52.745	447
52.795	438
52.845	419
52.896	389
52.946	381
52.996	364
53.046	348
53.096	341
53.146	335
53.197	334
53.247	337
53.297	338
53.347	357
53.397	371
53.448	388
53.498	408
53.548	415
53.599	448
53.649	466
53.699	472
53.750	494
53.800	500
53.850	506
53.900	506
53.950	482
54.000	493
54.051	480
54.101	456
54.151	445
54.201	425
54.251	405
54.302	387
54.352	358
54.402	353
54.452	344
54.503	329
54.553	333
54.604	335
54.654	340
54.704	351
54.754	355
54.804	382
54.855	401
54.905	414
54.955	441
55.005	458
55.055	477
55.105	491
55.156	485
55.206	506
55.256	508
55.306	499
55.356	498
55.407	482
55.458	470
55.508	454
55.558	420
55.608	412
55.658	393
55.709	368
55.759	359
55.809	347
55.859	338
55.909	333
55.959	324
56.010	337
56.060	346
56.110	356
56.160	376
56.210	394
56.260	414
56.312	435
56.362	442
56.412	471
56.462	486
56.512	495
56.563	506
56.613	505
56.663	508
56.713	501
56.763	478
56.813	477
56.864	460
56.914	435
56.964	419
57.014	398
57.064	380
57.114	362
57.165	342
57.216	339
57.266	334
57.316	325
57.366	334
57.417	345
57.467	355
57.517	369
57.567	379
57.617	408
57.667	430
57.718	448
57.768	467
57.818	471
57.868	496
57.918	507
57.968	498
58.019	510
58.069	504
58.120	492
58.170	483
58.220	452
58.271	446
58.321	425
58.371	393
58.421	385
58.471	365
58.521	346
58.572	340
58.622	341
58.672	329
58.722	331
58.772	332
58.823	349
58.873	364
58.923	378
58.973	402
59.024	419
59.074	444
59.125	466
59.175	469
59.225	496
59.275	505
59.325	512
59.375	513
59.426	493
59.476	500
59.526	489
59.576	460
59.626	453
59.677	430
59.727	407
59.777	390
59.827	357
59.877	354
59.928	341
59.979	326
60.029	327
60.079	327
60.129	332
60.179	344
60.229	348
60.280	376
60.330	396
60.380	408
60.430	439
60.480	459
60.531	479
60.581	494
60.631	489
60.681	513
60.731	515
60.781	505
60.833	506
60.883	491
60.933	478
60.983	460
61.033	420
61.084	416
61.134	394
61.184	368
61.234	357
61.284	343
61.334	331
61.385	326
61.435	320
61.485	330
61.535	341
61.585	346
61.635	370
61.686	390
61.737	413
61.787	435
61.837	441
61.887	474
61.938	492
61.988	497
62.038	514
62.088	514
62.138	516
62.188	510
62.239	484
62.289	483
62.339	464
62.389	436
62.439	421
62.489	398
62.540	378
62.590	358
62.641	339
62.691	332
62.741	325
62.792	314
62.842	326
62.892	337
62.942	349
62.992	365
63.042	376
63.093	406
63.143	429
63.193	446
63.243	472
63.293	485
63.343	505
63.394	514
63.444	502
63.495	519
63.545	514
63.595	498
63.646	489
63.696	467
63.746	450
63.796	425
63.846	393
63.896	381
63.947	361
63.997	340
64.047	332
64.097	325
64.147	321
64.197	323
64.248	324
64.298	343
64.348	359
64.399	376
64.449	401
64.500	422
64.550	447
64.600	469
64.650	475
64.700	504
64.750	515
64.801	518
64.851	522
64.901	509
64.951	508
65.001	494
65.052	462
65.102	456
65.152	431
65.202	404
65.252	386
65.303	363
65.354	346
65.404	334
65.454	317
65.504	319
65.554	321
65.604	322
65.655	339
65.705	363
65.755	374
65.805	397
65.855	410
65.906	444
65.956	463
66.006	483
66.056	503
66.106	497
66.156	522
66.208	525
66.258	508
66.308	512
66.358	496
66.408	479
66.458	459
66.509	429
66.559	412
66.609	389
66.659	358
66.709	348
66.760	334
66.810	320
66.860	318
66.910	315
66.960	325
67.010	335
67.061	344
67.112	369
67.162	390
67.212	414
67.262	440
67.312	447
67.363	484
67.413	501
67.463	503
67.513	522
67.563	523
67.614	523
67.664	515
67.714	486
67.764	485
67.814	464
67.864	432
67.915	418
67.965	393
68.016	368
68.066	351
68.116	328
68.167	324
68.217	318
68.267	312
68.317	320
68.367	332
68.417	345
68.468	365
68.518	378
68.568	411
68.618	434
68.668	452
68.718	481
68.769	495
68.819	512
68.869	520
68.920	508
68.970	524
69.021	517
69.071	500
69.121	489
69.171	467
69.221	447
69.271	422
69.322	388
69.372	375
69.422	355
69.472	334
69.522	326
69.572	319
69.623	316
69.673	320
69.723	322
69.773	343
69.824	360
69.875	376
69.925	405
69.975	429
70.025	453
70.075	477
70.125	480
70.176	511
70.226	520
70.276	521
70.326	527
70.376	515
70.426	509
70.477	493
70.527	462
70.577	451
70.627	426
70.677	396
70.729	380
70.779	358
70.829	340
70.879	327
70.929	312
70.979	315
71.030	318
71.080	320
71.130	339
71.180	357
71.230	378
71.280	401
71.331	416
71.381	451
71.431	472
71.481	490
71.531	509
71.582	513
71.633	526
71.683	527
71.733	509
71.783	513
71.833	495
71.884	476
71.934	455
71.984	428
72.034	407
72.084	382
72.135	354
72.185	343
72.235	330
72.285	316
72.335	316
72.385	329
72.436	324
72.487	337
72.537	346
72.587	375
72.637	394
72.687	418
72.738	446
72.788	458
72.838	490
72.888	506
72.938	508
72.989	526
73.039	527
73.089	524
73.139	515
73.189	484
73.239	482
73.290	460
73.340	427
73.391	411
73.441	386
73.491	356
73.541	347
73.592	339
73.642	321
73.692	316
73.742	308
73.792	321
73.843	334
73.893	346
73.943	370
73.993	383
74.043	417
74.093	443
74.144	453
74.194	487
74.244	503
74.295	518
74.345	525
74.396	503
74.446	525
74.496	516
74.546	495
74.596	485
74.646	463
74.697	440
74.747	416
74.797	380
74.847	368
74.897	349
74.947	328
74.998	322
75.048	317
75.098	315
75.148	320
75.199	324
75.250	346
75.300	366
75.350	382
75.400	413
75.450	436
75.500	462
75.551	483
75.601	488
75.651	517
75.701	525
75.751	521
75.801	527
75.852	515
75.902	507
75.952	489
76.002	456
76.052	445
76.104	419
76.154	390
76.204	373
76.254	351
76.304	334
76.354	323
76.405	310
76.455	313
76.505	319
76.555	322
76.605	343
76.655	362
76.706	385
76.756	409
76.806	422
76.856	458
76.906	480
76.957	494
77.008	515
77.058	520
77.108	529
77.158	529
77.208	506
77.259	509
77.309	492
77.359	465
77.409	450
77.459	422
77.509	399
77.560	376
77.610	347
77.660	336
77.710	324
77.760	312
77.811	313
77.861	318
77.912	325
77.962	340
78.012	352
78.062	381
78.113	405
78.163	425
78.213	455
78.263	472
78.313	497
78.364	513
78.414	510
78.464	528
78.514	528
78.564	522
78.614	512
78.665	489
78.715	476
78.765	453
78.816	417
78.866	403
78.916	379
78.967	352
79.017	340
79.067	332
79.117	318
79.167	313
79.218	308
79.268	325
79.318	337
79.368	352
79.418	376
79.468	399
79.519	424
79.569	450
79.619	462
79.669	494
79.720	508
79.770	522
79.821	526
79.871	511
79.921	525
79.971	515
80.021	486
80.072	481
80.122	456
80.172	432
80.222	408
80.272	383
80.322	361
80.373	343
80.423	322
80.473	319
80.523	315
80.573	313
80.624	323
80.675	335
80.725	352
80.775	373
80.825	386
80.875	421
80.926	445
80.976	470
81.026	490
81.076	491
81.126	521
81.176	526
81.227	517
81.277	525
81.327	515
81.377	501
81.427	483
81.477	448
81.529	438
81.579	413
81.629	378
81.679	366
81.729	346
81.780	330
81.830	320
81.880	309
81.930	315
81.980	321
82.030	325
82.081	349
82.131	369
82.181	392
82.231	417
82.281	428
82.332	466
82.382	487
82.433	498
82.483	519
82.533	524
82.583	531
82.634	528
82.684	499
82.734	505
82.784	487
82.834	454
82.884	441
82.935	413
82.985	392
83.035	367
83.085	340
83.135	331
83.186	320
83.236	308
83.287	314
83.337	319
83.387	328
83.437	347
83.488	356
83.538	387
83.588	411
83.638	432
83.688	463
83.738	482
83.789	504
83.839	517
83.889	511
83.939	531
83.989	529
84.040	515
84.090	508
84.140	486
84.191	469
84.241	445
84.291	408
84.342	395
84.392	372
84.442	345
84.492	333
84.542	323
84.592	315
84.643	314
84.693	313
84.743	327
84.793	342
84.843	357
84.894	383
84.944	407
84.994	434
85.044	459
85.095	469
85.145	502
85.196	516
85.246	522
85.296	531
85.346	521
85.396	524
85.447	511
85.497	480
85.547	473
85.597	449
85.647	420
85.697	398
85.748	375
85.798	353
85.848	338
85.898	316
85.948	315
85.999	313
86.050	310
86.100	325
86.150	345
86.200	358
86.250	381
86.301	396
86.351	432
86.401	455
86.451	479
86.501	500
86.551	494
86.602	527
86.652	533
86.702	518
86.752	527
86.802	512
86.852	493
86.904	476
86.954	445
87.004	425
87.054	400
87.104	369
87.155	354
87.205	337
87.255	320
87.305	314
87.355	319
87.405	313
87.456	322
87.506	328
87.556	356
87.606	378
87.656	402
87.706	430
87.757	443
87.808	479
87.858	500
87.908	504
87.958	527
88.009	532
88.059	533
88.109	527
88.159	500
88.209	500
88.259	479
88.310	448
88.360	428
88.410	403
88.460	376
88.510	353
88.560	328
88.611	321
88.661	313
88.712	302
88.762	311
88.812	319
88.863	336
88.913	353
88.963	366
89.013	401
89.063	427
89.113	448
89.164	479
89.214	498
89.264	518
89.314	529
89.364	518
89.415	537
89.465	531
89.515	513
89.565	503
89.616	479
89.666	458
89.717	431
89.767	393
89.817	379
89.867	356
89.917	331
89.967	322
90.018	312
90.068	305
90.118	308
90.168	312
90.218	330
90.269	351
90.319	368
90.369	398
90.419	424
90.469	451
90.520	478
90.571	485
90.621	519
90.671	529
90.721	534
90.771	539
90.821	528
90.872	523
90.922	507
90.972	467
91.022	460
91.072	434
91.123	402
91.173	381
91.223	358
91.273	336
91.323	321
91.373	304
91.425	306
91.475	308
91.525	308
91.575	328
91.625	349
91.676	369
91.726	394
91.776	412
